time,x,y,theta,z
1.124,-0.0005029357853345573,0.0031008687801659107,0.08965900300414907,-1.7188053131103516
1.125999999,-0.0005207909271121025,0.003185940207913518,0.09213931168354829,-1.724509358406067
1.127999999,-0.000539095897693187,0.003272084053605795,0.09465221332921839,-1.7301998138427734
1.129999999,-0.000557858613319695,0.003359295893460512,0.09719766075259685,-1.7358769178390503
1.131999999,-0.0005770870484411716,0.0034475717693567276,0.09977561096797342,-1.7415406703948975
1.133999999,-0.0005967894103378057,0.003536907723173499,0.10238600598628954,-1.7471909523010254
1.135999999,-0.0006169737898744643,0.0036272990982979536,0.10502880464606389,-1.7528278827667236
1.137999999,-0.0006376484525389969,0.0037187421694397926,0.10770395434362492,-1.7584515810012817
1.139999999,-0.0006588218384422362,0.003811232279986143,0.11041140585494508,-1.7640619277954102
1.141999999,-0.0006805022712796926,0.0039047652389854193,0.11315111253581721,-1.769659161567688
1.143999999,-0.0007026983075775206,0.003999336156994104,0.11592302900136627,-1.7752430438995361
1.145999999,-0.0007254185038618743,0.004094941075891256,0.11872709262915374,-1.7808138132095337
1.147999999,-0.00074867153307423,0.004191575106233358,0.12156327880381436,-1.7863715887069702
1.149999999,-0.0007724660099484026,0.00428923312574625,0.12443152080374141,-1.7919161319732666
1.151999999,-0.0007968108402565122,0.004387911409139633,0.12733177521195718,-1.797447681427002
1.153999999,-0.0008217148715630174,0.0044876039028167725,0.1302640000484232,-1.8029662370681763
1.155999999,-0.0008471869514323771,0.0045883068814873695,0.13322814089292526,-1.8084716796875
1.157999999,-0.000873236102052033,0.004690014757215977,0.13622414461994262,-1.8139643669128418
1.159999999,-0.0008998714620247483,0.004792722407728434,0.1392519774017523,-1.8194440603256226
1.161999999,-0.0009271020535379648,0.004896425176411867,0.14231157896096858,-1.8249107599258423
1.163999999,-0.0009549371898174286,0.00500111747533083,0.14540291354989318,-1.8303648233413696
1.165999999,-0.000983386067673564,0.005106794182211161,0.1485259183976072,-1.835805892944336
1.167999999,-0.001012458000332117,0.005213449709117413,0.15168056568691035,-1.8412343263626099
1.169999999,-0.001042162417434156,0.005321078933775425,0.15486678531418493,-1.8466500043869019
1.171999999,-0.0010725086322054267,0.00542967626824975,0.15808455100046273,-1.852052927017212
1.173999999,-0.001103506307117641,0.00553923612460494,0.16133379624295363,-1.8574432134628296
1.175999999,-0.0011351649882271886,0.005649752449244261,0.16461448484794478,-1.8628208637237549
1.177999999,-0.0011674942215904593,0.005761220119893551,0.16792657796941876,-1.8681858777999878
1.179999999,-0.0012005036696791649,0.005873632617294788,0.1712700069262066,-1.8735383749008179
1.181999999,-0.0012342032277956605,0.005986983887851238,0.17464473938901065,-1.8788782358169556
1.183999999,-0.001268602441996336,0.00610126880928874,0.17805073087296971,-1.88420569896698
1.185999999,-0.0013037112075835466,0.0062164803966879845,0.18148791598850114,-1.8895206451416016
1.187999999,-0.0013395394198596478,0.006332612596452236,0.1849562746146835,-1.8948231935501099
1.189999999,-0.0013760970905423164,0.00644965935498476,0.1884557362354708,-1.9001133441925049
1.191999999,-0.0014133942313492298,0.0065676141530275345,0.19198627278958105,-1.9053912162780762
1.193999999,-0.0014514406211674213,0.006686470005661249,0.1955478310784953,-1.9106565713882446
1.195999999,-0.0014902465045452118,0.006806220859289169,0.1991403469378616,-1.915909767150879
1.197999999,-0.0015298220096156001,0.006926860194653273,0.20276379064130304,-1.9211506843566895
1.199999999,-0.0015701772645115852,0.007048380095511675,0.2064181306100654,-1.9263793230056763
1.201999999,-0.0016113223973661661,0.007170774973928928,0.21010329268282604,-1.931595802307129
1.203999999,-0.0016532677691429853,0.007294036913663149,0.21381924382264042,-1.9368000030517578
1.2059999989999999,-0.0016960235079750419,0.007418158929795027,0.21756594213474817,-1.941992163658142
1.207999999,-0.0017395999748259783,0.0075431340374052525,0.2213433246617705,-1.9471722841262817
1.2099999989999999,-0.0017840075306594372,0.007668954320251942,0.2251513614764229,-1.9523402452468872
1.211999999,-0.0018292565364390612,0.007795613259077072,0.22899000697951452,-1.957496166229248
1.2139999989999999,-0.0018753573531284928,0.00792310293763876,0.23285919691417342,-1.9626401662826538
1.215999999,-0.0019223205745220184,0.008051414974033833,0.2367589101833883,-1.967772126197815
1.2179999989999999,-0.001970156328752637,0.008180542849004269,0.24068908063616468,-1.972892165184021
1.2199999990000001,-0.002018875675275922,0.008310478180646896,0.24464966528549448,-1.978000283241272
1.221999999,-0.0020684886258095503,0.008441212587058544,0.24864063869373385,-1.9830964803695679
1.2239999990000001,-0.0021190056577324867,0.00857273768633604,0.2526619347795634,-1.9881808757781982
1.225999999,-0.0021704379469156265,0.008705046027898788,0.2567135271957169,-1.993253469467163
1.2279999990000001,-0.002222795272246003,0.008838129229843616,0.26079533347164413,-1.9983142614364624
1.229999999,-0.0022760890424251556,0.008971977978944778,0.2649073333616826,-2.0033633708953857
1.2319999990000001,-0.002330329269170761,0.009106584824621677,0.26904949469141676,-2.0084006786346436
1.234,-0.0023855268955230713,0.009241940453648567,0.2732217515278224,-2.0134263038635254
1.236,-0.0024416923988610506,0.009378036484122276,0.27742405690388916,-2.0184402465820312
1.238,-0.002498836489394307,0.009514862671494484,0.2816563735021242,-2.023442506790161
1.24,-0.002556969877332449,0.009652411565184593,0.2859186586801436,-2.028433322906494
1.242,-0.002616103272885084,0.009790672920644283,0.290210875173351,-2.033412456512451
1.244,-0.002676247386261821,0.009929638355970383,0.2945329608592228,-2.0383801460266113
1.246,-0.0027374126948416233,0.010069296695291996,0.2988848859283527,-2.0433363914489746
1.248,-0.0027996101416647434,0.010209640488028526,0.30326657445174177,-2.048280954360962
1.25,-0.0028628502041101456,0.010350658558309078,0.3076780348478114,-2.0532143115997314
1.252,-0.0029271438252180815,0.01049234252423048,0.3121191726716379,-2.058135986328125
1.254,-0.002992501249536872,0.010634680278599262,0.3165899575739424,-2.063046455383301
1.256,-0.003058933885768056,0.010777663439512253,0.32109036778029115,-2.0679454803466797
1.258,-0.0031264517456293106,0.010921281762421131,0.3256203519570673,-2.072833299636841
1.26,-0.0031950657721608877,0.011065523140132427,0.3301798197313149,-2.077709674835205
1.262,-0.0032647864427417517,0.01121037919074297,0.33476877879741823,-2.0825748443603516
1.264,-0.003335624933242798,0.011355838738381863,0.33938717505336674,-2.0874288082122803
1.266,-0.0034075912553817034,0.011501889675855637,0.3440349525138564,-2.092271566390991
1.268,-0.00348069635219872,0.011648522689938545,0.34871208882046983,-2.0971033573150635
1.27,-0.003554950701072812,0.011795726604759693,0.35341849706023704,-2.101923704147339
1.272,-0.0036303650122135878,0.01194348931312561,0.35815417674526057,-2.1067330837249756
1.274,-0.0037069497630000114,0.012091799639165401,0.362919044534484,-2.1115312576293945
1.276,-0.0037847154308110476,0.012240647338330746,0.36771310827996884,-2.116318464279175
1.278,-0.0038636724930256605,0.012390019372105598,0.372536278540404,-2.1210944652557373
1.28,-0.003943831659853458,0.012539904564619064,0.37738852199335804,-2.1258597373962402
1.282,-0.004025203175842762,0.012690290808677673,0.3822698037140324,-2.1306138038635254
1.284,-0.004107797518372536,0.01284116692841053,0.38718009900569067,-2.135357141494751
1.286,-0.0041916249319911,0.012992518953979015,0.3921193253185821,-2.140089511871338
1.288,-0.004276696126908064,0.013144336640834808,0.3970874557550731,-2.144810914993286
1.29,-0.00436302088201046,0.013296606950461864,0.4020844527732285,-2.1495213508605957
1.292,-0.004450609907507896,0.013449315913021564,0.4071102667407575,-2.154221296310425
1.294,-0.004539472982287407,0.013602452352643013,0.41216485401882563,-2.158910036087036
1.296,-0.0046296208165585995,0.013756003230810165,0.41724815633089496,-2.163588285446167
1.298,-0.0047210631892085075,0.013909953646361828,0.4223601783215518,-2.1682558059692383
1.3,-0.004813809879124165,0.01406429335474968,0.4275008225369518,-2.172912359237671
1.302,-0.004907871596515179,0.014219006523489952,0.43267009821576724,-2.177558422088623
1.304,-0.005003257654607296,0.0143740801140666,0.437867904366889,-2.1821937561035156
1.306,-0.005099978297948837,0.014529502019286156,0.4430942467083446,-2.1868185997009277
1.308,-0.005198043305426836,0.014685256406664848,0.44834903336276327,-2.1914327144622803
1.31,-0.005297462455928326,0.014841331169009209,0.4536322794056596,-2.1960363388061523
1.312,-0.00539824552834034,0.014997710473835468,0.45894391436353504,-2.200629234313965
1.314,-0.005500401835888624,0.015154380351305008,0.46428385822720164,-2.205211639404297
1.316,-0.005603941157460213,0.015311327762901783,0.4696521287587712,-2.2097837924957275
1.318,-0.005708873271942139,0.015468536876142025,0.4750486825379558,-2.2143452167510986
1.32,-0.005815207026898861,0.01562599278986454,0.48047342732682985,-2.2188963890075684
1.322,-0.0059229526668787,0.015783682465553284,0.4859263696833672,-2.2234368324279785
1.324,-0.006032118108123541,0.015941588208079338,0.4914074269234189,-2.2279672622680664
1.326,-0.006142713595181704,0.01609969697892666,0.49691658958220974,-2.232487201690674
1.328,-0.006254747975617647,0.01625799387693405,0.502453783593227,-2.236996650695801
1.33,-0.006368230562657118,0.016416460275650024,0.5080190125782164,-2.2414958477020264
1.332,-0.006483169272542,0.016575083136558533,0.5136121704309766,-2.2459850311279297
1.334,-0.0065995738841593266,0.016733845695853233,0.5192332850777424,-2.2504637241363525
1.336,-0.00671745277941227,0.016892731189727783,0.5248822505768109,-2.254932165145874
1.338,-0.0068368143402040005,0.01705172471702099,0.5305590984957983,-2.259390354156494
1.34,-0.006957667879760265,0.017210811376571655,0.536263713469288,-2.263838529586792
1.342,-0.007080020848661661,0.01736997254192829,0.5419960688946,-2.2682766914367676
1.3439999999999999,-0.007203882094472647,0.017529191449284554,0.5477561785752944,-2.2727043628692627
1.346,-0.007329259533435106,0.017688453197479248,0.5535439240851722,-2.2771222591400146
1.3479999999999999,-0.007456162013113499,0.017847739160060883,0.5593593249342377,-2.2815299034118652
1.35,-0.0075845965184271336,0.018007032573223114,0.5652023049846028,-2.2859275341033936
1.3519999999999999,-0.0077145714312791824,0.01816631853580475,0.5710728447866675,-2.2903151512145996
1.354,-0.00784609466791153,0.018325574696063995,0.5769708569759653,-2.2946927547454834
1.3559999999999999,-0.007979173213243484,0.01848478801548481,0.5828963655808309,-2.299060344696045
1.358,-0.008113814517855644,0.0186439398676157,0.5888493189611614,-2.3034181594848633
1.3599999999999999,-0.00825002696365118,0.018803011626005173,0.5948296377119177,-2.3077659606933594
1.362,-0.008387817069888115,0.018961986526846886,0.6008372892799057,-2.3121039867401123
1.3639999999999999,-0.008527192287147045,0.019120844081044197,0.6068722729013397,-2.316431999206543
1.366,-0.008668158203363419,0.019279567524790764,0.6129344686370263,-2.3207502365112305
1.3679999999999999,-0.008810724131762981,0.019438140094280243,0.6190239035116262,-2.3250584602355957
1.37,-0.008954894728958607,0.019596539437770844,0.6251405033172331,-2.329357147216797
1.3719999999999999,-0.009100676514208317,0.019754750654101372,0.6312842658158048,-2.333646059036255
1.374,-0.009248077869415283,0.019912751391530037,0.6374551291945733,-2.3379251956939697
1.375999999,-0.009397102519869804,0.020070524886250496,0.6436530439617053,-2.3421945571899414
1.377999999,-0.009547757916152477,0.020228050649166107,0.6498779783661772,-2.34645414352417
1.379999999,-0.00970004964619875,0.02038531005382538,0.6561298295731424,-2.3507041931152344
1.381999999,-0.009853984229266644,0.020542284473776817,0.6624087280395284,-2.3549444675445557
1.383999999,-0.010009565390646458,0.020698951557278633,0.6687144161154738,-2.359175443649292
1.385999999,-0.010166800580918789,0.020855294540524483,0.6750469953281745,-2.363396406173706
1.387999999,-0.010325693525373936,0.021011291071772575,0.6814064297434199,-2.367608070373535
1.389999999,-0.01048625074326992,0.02116692252457142,0.6877925596319857,-2.3718101978302
1.391999999,-0.010648475959897041,0.02132217027246952,0.694205510820108,-2.376002788543701
1.393999999,-0.010812374763190746,0.02147701010107994,0.7006450948960468,-2.380185842514038
1.395999999,-0.010977950878441334,0.021631423383951187,0.707111324501689,-2.384359359741211
1.397999999,-0.011145208962261677,0.021785389631986618,0.7136042121253889,-2.3885233402252197
1.399999999,-0.011314153671264648,0.021938888356089592,0.7201236604391255,-2.3926782608032227
1.401999999,-0.011484787799417973,0.022091897204518318,0.726669628747314,-2.3968234062194824
1.403999999,-0.011657116934657097,0.022244395688176155,0.7332420993249218,-2.4009592533111572
1.405999999,-0.01183114293962717,0.02239636331796646,0.7398410241364548,-2.405086040496826
1.407999999,-0.012006870470941067,0.022547779604792595,0.7464663316922883,-2.409203290939331
1.409999999,-0.012184301391243935,0.022698620334267616,0.7531180586956024,-2.413311004638672
1.411999999,-0.012363440357148647,0.022848866879940033,0.759796121126791,-2.417409658432007
1.413999999,-0.012544289231300354,0.022998495027422905,0.7665004642699927,-2.421499252319336
1.415999999,-0.012726849876344204,0.02314748242497444,0.7732310412939466,-2.425579309463501
1.417999999,-0.012911126017570496,0.02329581044614315,0.7799878747862893,-2.42965030670166
1.419999999,-0.013097119517624378,0.02344345487654209,0.7867708679623681,-2.4337120056152344
1.421999999,-0.013284832239151001,0.023590393364429474,0.7935799950145852,-2.4377646446228027
1.423999999,-0.013474265113472939,0.023736603558063507,0.800415258906226,-2.441807985305786
1.425999999,-0.01366542000323534,0.0238820631057024,0.8072765197416002,-2.4458422660827637
1.427999999,-0.01385829783976078,0.024026747792959213,0.8141638600100833,-2.4498674869537354
1.429999999,-0.014052900485694408,0.024170638993382454,0.8210771756956708,-2.453883647918701
1.431999999,-0.014249228872358799,0.024313710629940033,0.8280163934713979,-2.457890748977661
1.433999999,-0.014447282999753952,0.02445594035089016,0.8349815544155468,-2.4618890285491943
1.435999999,-0.014647062867879868,0.024597305804491043,0.8419725526660131,-2.4658780097961426
1.437999999,-0.014848568476736546,0.024737780913710594,0.8489894043899482,-2.469858169555664
1.4399999989999999,-0.015051799826323986,0.02487734705209732,0.8560320428191676,-2.4738292694091797
1.441999999,-0.015256757847964764,0.025015978142619133,0.8631004111952796,-2.4777913093566895
1.4439999989999999,-0.015463439747691154,0.02515364997088909,0.870194502788194,-2.4817445278167725
1.445999999,-0.01567077822983265,0.025289645418524742,0.877277978417946,-2.4856889247894287
1.4479999989999999,-0.015878761187195778,0.025423964485526085,0.8843507740166622,-2.489624500274658
1.449999999,-0.016087371855974197,0.02555660530924797,0.8914130140507517,-2.493551015853882
1.4519999989999999,-0.016296599060297012,0.025687571614980698,0.898464615724767,-2.497468948364258
1.453999999,-0.01650642417371273,0.025816861540079117,0.9055056597365203,-2.501377820968628
1.4559999989999999,-0.016716837882995605,0.025944476947188377,0.9125361446011085,-2.5052778720855713
1.457999999,-0.016927821561694145,0.02607041783630848,0.9195560811132697,-2.509169340133667
1.4599999989999999,-0.017139365896582603,0.026194684207439423,0.9265654732140941,-2.513051986694336
1.461999999,-0.017351454123854637,0.026317277923226357,0.9335643735768193,-2.516925811767578
1.4639999989999999,-0.017564071342349052,0.02643819898366928,0.940552743190122,-2.5207910537719727
1.465999999,-0.017777206376194954,0.026557449251413345,0.9475306591805897,-2.5246474742889404
1.468,-0.017990846186876297,0.0266750305891037,0.9544980818413303,-2.5284953117370605
1.47,-0.01820497401058674,0.02679094299674034,0.9614550582993795,-2.532334327697754
1.472,-0.018419578671455383,0.026905188336968422,0.9684016083940494,-2.5361649990081787
1.474,-0.018634645268321037,0.02701776847243309,0.975337756800717,-2.5399868488311768
1.476,-0.018850160762667656,0.027128685265779495,0.9822634601783659,-2.5438003540039062
1.478,-0.019066112115979195,0.027237938717007637,0.9891788031355052,-2.547605037689209
1.48,-0.01928248628973961,0.027345532551407814,0.996083768638555,-2.551401376724243
1.482,-0.019499270245432854,0.027451466768980026,1.0029783705020845,-2.5551888942718506
1.484,-0.019716449081897736,0.027555743232369423,1.0098626337709458,-2.5589683055877686
1.486,-0.01993401162326336,0.02765836752951145,1.0167365914940327,-2.5627388954162598
1.488,-0.02015194296836853,0.027759337797760963,1.0236001991870625,-2.5665013790130615
1.49,-0.020370231941342354,0.027858657762408257,1.0304535632766905,-2.5702550411224365
1.492,-0.020588865503668785,0.02795632928609848,1.0372966072004564,-2.574000597000122
1.494,-0.02080783061683178,0.028052356094121933,1.0441293954888438,-2.57773756980896
1.496,-0.021027114242315292,0.028146740049123764,1.0509519304991355,-2.5814661979675293
1.498,-0.02124670334160328,0.028239483013749123,1.0577642202004682,-2.58518648147583
1.5,-0.021466584876179695,0.028330586850643158,1.0645663139426345,-2.5888986587524414
1.502,-0.021686749532818794,0.028420057147741318,1.0713581880158216,-2.592602252960205
1.504,-0.021907180547714233,0.028507893905043602,1.0781398830600981,-2.5962975025177
1.506,-0.022127868607640266,0.02859410271048546,1.0849114258483028,-2.599984645843506
1.508,-0.02234880067408085,0.028678683564066887,1.0916727973220373,-2.603663444519043
1.51,-0.022569963708519936,0.028761642053723335,1.0984240186645478,-2.6073341369628906
1.512,-0.022783242166042328,0.02883884124457836,1.1051651192022522,-2.6109964847564697
1.514,-0.022988617420196533,0.02891034632921219,1.1118961268786467,-2.6146504878997803
1.516,-0.023186063393950462,0.02897622622549534,1.1186170131698132,-2.6182963848114014
1.518,-0.023375563323497772,0.029036549851298332,1.1253278267659106,-2.621933937072754
1.52,-0.023557094857096672,0.029091380536556244,1.1320285869857014,-2.625563383102417
1.522,-0.02373063936829567,0.029140787199139595,1.1387192844421818,-2.6291844844818115
1.524,-0.023896176367998123,0.029184838756918907,1.1453999445623477,-2.6327974796295166
1.526,-0.02405368909239769,0.029223600402474403,1.152070606675964,-2.6364023685455322
1.528,-0.024203157052397728,0.029257141053676605,1.1587312524311466,-2.6399989128112793
1.53,-0.024344565346837044,0.029285527765750885,1.1653818743559874,-2.643587589263916
1.532,-0.024477893486618996,0.029308827593922615,1.1720225679067082,-2.6471681594848633
1.534,-0.02460312843322754,0.029327107593417168,1.1786532787433392,-2.650740623474121
1.536,-0.024720249697566032,0.029340434819459915,1.1852740600224072,-2.6543049812316895
1.538,-0.02482924424111843,0.02934887818992138,1.1918849049790265,-2.6578614711761475
1.54,-0.02493009716272354,0.029352502897381783,1.1984858314737394,-2.661409616470337
1.542,-0.02502278983592987,0.029351379722356796,1.2050768610922378,-2.664950132369995
1.544,-0.025107312947511673,0.029345571994781494,1.2116580144376037,-2.668482542037964
1.546,-0.025183649733662605,0.029335148632526398,1.2182292909114065,-2.672006845474243
1.548,-0.025251787155866623,0.02932017855346203,1.2247907019969735,-2.675523519515991
1.55,-0.02531171217560768,0.02930072695016861,1.231342297113851,-2.67903208732605
1.552,-0.025363411754369736,0.029276860877871513,1.2378840344218853,-2.682532787322998
1.554,-0.02540687657892704,0.029248647391796112,1.2444159804118922,-2.686025381088257
