keyframe_id,time,x,y,theta,dr_x,dr_y,dr_theta
0,1506456461.865,0.028299418516429448,-0.08849909865868213,-0.03175770535114158,0.0,0.0,0.0
1,1506456483.161,2.8780135224478403,0.939709216081649,0.16674220282026014,2.643827594498011,1.457515314626751,0.3145803153405588
2,1506456488.355,4.567531371169258,0.6668654905169761,-0.48852200487715874,4.173069788125401,1.69569615642803,-0.22835143496471652
3,1506456498.419,5.000599354081113,-0.9885289056680276,-0.5627162973113289,7.003609208692728,0.6720505891606233,-0.38531215332090374
4,1506456508.495,7.705068340122367,-2.7452643420898677,-0.6014999498481847,9.834274694945883,-0.37876274177485836,-0.3397162804708155
5,1506456522.53,7.915359284540792,-4.174959999291139,-1.1397486593296688,10.522679796917878,-0.620445239925899,-0.8906774602129682
6,1506456544.766,7.240355200165405,-5.287336827158264,-1.6831001403084171,11.239496079444836,-1.8881114464992999,-1.4246114351103956
7,1506456578.216,7.84651956166103,-7.8313299218813155,-1.3357684810812605,11.996897360681539,-4.803183546268705,-1.0067322271780084
8,1506456588.177,8.511615955869843,-10.05962432813186,-1.341108885894891,13.543323873285845,-7.378619402914284,-1.0152672762369606
9,1506456598.368,9.700657650837023,-11.948880992161063,-1.215533593894493,15.334275660655765,-9.817727194880565,-0.8689403908400465
10,1506456612.827,10.338072469239819,-14.595400003635676,-1.4723779985243906,17.263527345332964,-12.174870619172703,-1.0564578897335282
11,1506456622.858,10.942041700629787,-16.337470150166155,-1.4194909511446294,18.559906957719672,-14.891628643082843,-1.0303955533944849
12,1506456650.11,11.2792282917393,-19.04137912638498,-1.5758148619759764,19.395658295563738,-17.8312517995849,-1.2135742650883408
13,1506456660.179,12.308389916613972,-21.689937603931646,-1.4240301706867182,20.72810246029789,-20.542966832812724,-1.093570681225537
14,1506456670.309,13.586057069034862,-24.796020668791787,-1.4282889221728314,22.293508807206187,-23.146840447746236,-0.9939721116602156
15,1506456680.409,14.795280776633122,-28.06018882307027,-1.5040530735894853,23.89509980473738,-25.70656343319473,-1.0715648503358381
16,1506456690.499,14.981660033268685,-31.65501098806802,-1.6670887960931102,25.169675738797395,-28.4476313694346,-1.1920483716992372
17,1506456700.964,15.226044640829889,-32.234722916607645,-1.053026124345895,25.53419684480369,-29.35163517349188,-0.6598927990356191
18,1506456710.415,15.405427208218033,-35.313038714286016,-0.4158889403803587,25.991927770116817,-29.442611912027004,-0.1269188936026704
19,1506456720.649,16.78744906244111,-33.90972072501238,-0.23565774293400604,29.04445963971118,-29.408563735449132,0.1279377449209318
20,1506456730.766,18.72817094106263,-35.484629891124776,-0.11910888459888742,32.01496541414306,-28.791693139679655,0.23999839931842876
21,1506456740.896,20.566480798775096,-35.60127199283501,0.06688853256560759,34.93196415556147,-27.95406920746114,0.3864851157471498
22,1506456750.9,22.469923691614117,-35.57906499549533,0.13182150860166283,37.67764798721529,-26.734573379212545,0.42385877410658057
23,1506456760.936,24.204156678421135,-35.39812017815736,0.15887912257552717,40.410325081156564,-25.478501103245165,0.47317196266395567
24,1506456772.966,25.756437236153896,-35.015914971512274,0.5910866097184506,42.77975348123697,-23.58546907092418,0.8467832784353336
25,1506456805.685,27.98824568879273,-35.52541883643208,1.0985347027103622,44.53434108740524,-21.211041828533197,1.3772763425948993
26,1506456842.015,29.837996637085084,-33.83095554136302,1.0458439323253887,45.09379112751303,-18.23705014631425,1.3798151511386387
27,1506456852.269,31.88625838775335,-31.93035041428698,0.9866725666197244,45.76612010189436,-15.288650529678238,1.2997750458359558
28,1506456862.436,34.08593543827705,-30.15783821936368,0.9931932297029469,46.6146350628254,-12.359063557942305,1.290140665385849
29,1506456882.641,35.455914478150326,-27.541330922959983,1.2225630211778848,47.132557239726246,-9.360333712927671,1.5346845779916687
30,1506456926.789,36.707029599618714,-24.904245197538188,1.2520499982683793,47.485588610585324,-6.370976787420901,1.578218123650028
31,1506456936.868,37.96906201242271,-22.265344833780077,0.9999762244863166,47.80646861517834,-3.3717070655098254,1.3390524825806036
32,1506456968.168,38.80624731151644,-21.040023394492806,1.5584365555617872,48.156095462761954,-1.8506812282761267,1.9096420631997202
33,1506456981.182,37.945471442114545,-18.238584940953668,1.8774413624152981,46.35061646033238,0.5702016331398698,2.2415672473340753
34,1506456991.262,37.12587108349951,-15.319526096598096,1.7264427051732547,44.61135163835734,3.041260287127002,2.1140354573875895
35,1506457020.196,37.02747784320045,-14.273203203425128,2.2531845945144147,44.034000382967754,4.052273931755922,2.640783332042954
36,1506457040.085,35.74547045262533,-12.827466975968777,2.600724211230044,41.11480715700222,4.747485477562956,3.003422936365097
37,1506457053.314,34.41462770427269,-12.199713272818892,2.500723620318802,38.08648080977581,5.097552812156725,2.9009238099679866
38,1506457080.19,32.13874033530501,-9.80329975449891,2.221526724958349,35.155144974514734,6.023865985709919,2.6287413200161196
39,1506457117.164,31.54773994685982,-8.964020398555014,1.681852492073087,34.177926615887245,6.599918798729158,2.0960318095896
40,1506457131.612,29.357353292303742,-9.360772907572843,2.2172214196666205,34.177926615887245,6.599918798729158,2.6401728113189322
41,1506457145.22,26.927898732076834,-7.675757911575825,2.4843072699159703,31.18858202477856,7.153912805613087,2.9191210381048025
42,1506457155.288,23.80721964645457,-5.2151565740592405,2.637465223692759,28.20540395875118,7.604322408682592,3.0581667745026757
43,1506457165.457,20.437518050944618,-3.4579288975965805,2.7137572633051503,25.15626625512922,7.665073390748815,-3.1237319317933703
44,1506457172.863,17.826487544981575,-2.209628536414407,2.6816867188545905,22.152644744344187,7.6292715311900094,3.120376743407192
45,1506457182.729,15.416828126802674,-0.7555454489882808,2.591438699717918,19.15087297256633,7.831063626905203,2.9871732989860353
46,1506457192.814,13.781690360694506,0.3654587766347507,2.577020797145,16.154004631697447,8.244408106781913,2.9935418800737397
47,1506457203.009,12.226034781397853,1.903769434564278,2.5289038723086206,13.160955646492056,8.866695710296051,2.943767726674354
48,1506457213.107,10.902961713733772,2.96444117418226,2.5124248103730817,10.191790123441303,9.464522266238871,2.8940025738610506
49,1506457223.188,9.803876167565116,4.1659039028526985,2.4598987610885548,7.281071905355561,10.284040336224656,2.8763899789739407
50,1506457233.274,8.99971028879012,4.6127259130623335,2.2780539736014367,4.433852503733893,11.299443761084332,2.692777537794756
51,1506457245.418,7.537882778660286,7.039300132138108,2.0277663193453845,1.839716476012839,12.840775737160108,2.423236286960366
52,1506457287.066,5.770128750254041,9.273530877697038,2.5000615407407385,-0.9283633610427228,14.130547872804545,2.870057821675947
53,1506457298.233,3.465665958356829,10.848884247908776,2.993585337353048,-3.9258126656860615,14.681840549743093,-2.9493952169996347
54,1506457308.409,0.7777357273258324,10.276130273890347,-2.786631999375056,-6.549680528033126,13.170889988521028,-2.4741356868509756
55,1506457320.588,-1.5765954402945146,9.296077678088668,-2.765632395947403,-8.827732291889616,11.163046858186686,-2.4424889675511725
56,1506457330.635,-4.045197603288482,7.872036400821749,-2.53251426723199,-10.88821248673989,8.974136037692404,-2.220132804315569
57,1506457342.622,-5.2071535670461895,6.979056343670685,-3.0511340872641752,-11.898435130312734,7.683365536728479,-2.746294097116858
58,1506457352.727,-8.077670120580477,7.603816660513471,2.989433085068538,-14.897447912575805,7.353196415375345,-2.988310427658492
59,1506457362.86,-11.122107073602471,7.752978774346018,-3.0608910306315535,-17.814467151439384,6.537595098171305,-2.7379507925349262
60,1506457377.098,-14.255795921046632,7.773011475872142,3.09458104084949,-20.67207406431576,5.506903128995263,-2.838456607914204
61,1506457390.289,-14.562467609139706,8.493065452295669,3.1189884382340565,-23.39200213281709,4.184526801598269,-2.792410018899112
62,1506457400.4,-17.684025788165588,8.91552218612695,3.028353029649704,-26.318088064058173,3.390996925455856,-2.858165915238873
63,1506457412.523,-20.796382333446836,9.2596099728811,-3.084852166726291,-29.173533644864474,2.4607869342515656,-2.6660594203002823
64,1506457422.713,-23.937034847040664,9.0159214359502,-2.7998809116972363,-31.794671163422215,0.9186506202026586,-2.3624314789277996
65,1506457432.919,-23.76088823246616,4.849163109560798,-2.5535807649428595,-33.45810260645529,-1.6359209954376617,-2.0355295875844974
66,1506457443.167,-24.862460542960022,1.2805560767330653,-2.10622295796545,-34.073745682812856,-4.619267678246569,-1.6092877348853922
67,1506457453.182,-26.753510994241427,-1.8862837465164792,-2.013309944105174,-33.99673386872564,-7.620400868926222,-1.4900746350267593
68,1506457463.272,-26.13306849576768,-5.993291606121999,-1.9250356902791825,-33.62247532595449,-10.62355574859352,-1.3801552683964218
69,1506457473.391,-26.350803301515615,-9.507894565710478,-1.8174886333376115,-32.91036146404873,-13.572988970471998,-1.3188470630140672
70,1506457478.601,-25.786555630161978,-10.510902901211903,-2.321261752047871,-32.82148512281789,-15.115055818617375,-1.8518632430519768
71,1506457488.729,-26.212135551482714,-13.36256027996836,-2.4798399945894314,-34.03649018778716,-17.89576775546547,-1.9318496189189507
72,1506457498.92,-29.113772347969313,-15.839567645262482,-2.1893140559561814,-34.77683506792573,-20.85383090521944,-1.7193476884725087
73,1506457509.083,-31.20756072074072,-19.033052950554993,-2.0052729664909172,-34.80271033396741,-23.893171549701375,-1.4445125656901379
74,1506457523.96,-29.0859061596224,-22.816000430393693,-2.221945212506052,-34.50656856905276,-26.908746687486886,-1.7147983897487902
75,1506457529.27,-29.290854491197535,-21.71389344142903,-2.6565182714090567,-35.12854516213069,-28.350798292091007,-2.301520552206706
76,1506457539.437,-31.938831188921284,-21.988082954906357,3.1134587793350574,-37.77410463597989,-29.768953193746743,-2.8236709987468025
77,1506457549.647,-34.155566473947644,-23.49785883043432,-3.0251831308469197,-40.50604938117868,-31.13085737482281,-2.5282370640980134
78,1506457559.862,-36.39964637163546,-23.22793224235048,2.732394951346831,-42.79116406899936,-32.543294675856224,-3.055529690649269
79,1506457570.156,-38.071125781803254,-20.528199150343834,2.2317664829907704,-45.70902794976702,-31.64542496047658,2.7359707849361294
80,1506457581.361,-39.47306313365685,-17.63239521172054,2.0460829464111128,-48.48354778457879,-30.427724246667033,2.5231785915403933
81,1506457586.293,-39.63078738406568,-15.742520268113172,1.5413448261082783,-49.33854599991496,-29.24217153664711,1.996474974023878
82,1506457596.441,-39.00474331063455,-12.549818384267947,1.1758289367783619,-49.977700745671456,-26.279818051273896,1.5790109783603548
83,1506457601.395,-38.48524579904445,-10.147530301739959,0.647651690498691,-49.5822497046174,-24.866404200863116,1.0450006168820831
84,1506457608.369,-36.02906976386192,-9.417224266230136,0.35410225229114767,-47.59640675867975,-22.60812437577395,0.7700953797082293
85,1506457617.226,-33.211180175404266,-8.691020279421826,0.7017420425221276,-45.725377464900404,-20.253192844808765,1.111425507319424
86,1506457623.862,-30.970898569415983,-7.180235791527811,0.9246570524815382,-44.615908591731035,-17.427966782930973,1.3205627063095016
87,1506457631.817,-29.19249730834603,-5.072522505767207,1.3061488572386692,-44.19813412732791,-14.451587852611281,1.7461748489441602
88,1506457642.053,-28.966637290709127,-2.2608279185039075,1.6630941980253147,-45.254570891695025,-11.58643063374382,2.102719655740143
89,1506457652.118,-29.678900532477105,0.39683987397275305,1.9342627014947844,-47.12802863168653,-9.234417718766462,2.3817562016332356
90,1506457662.33,-30.463293580524024,2.90682273412865,1.655004966426171,-49.274640815429755,-7.09678505694703,2.0943129729131504
91,1506457667.028,-29.800172473022595,3.7393566539247245,1.08850004830611,-49.61386379942309,-5.747746530709834,1.5509899518946266
92,1506457671.774,-28.473029842848447,4.252333433327893,0.5466152219239352,-49.24464002959164,-4.391207094111249,1.0231292678274482
93,1506457675.267,-27.630930316669147,4.26889660378594,0.0487113874791502,-48.478618418425576,-3.6956568216179417,0.46628038755186463
94,1506457678.95,-27.071279567448002,3.4527440469874997,-0.47948165788740466,-47.40962606771899,-3.473808724050727,-0.0754103436575473
95,1506457684.559,-26.364425641422905,2.2338010846668155,-0.9938728997958712,-45.48656876704713,-4.372762314363178,-0.6052445434748238
96,1506457692.434,-24.51504760309428,0.15947054561420992,-0.9619763624362587,-43.01174762805544,-6.175639717783067,-0.539202670578529
97,1506457698.289,-23.371596818669747,-0.008184795755889762,-0.3890418633661677,-41.35788430739934,-6.707756149989084,-0.00012581890329843581
98,1506457701.853,-22.64075333113652,-0.15713698989307284,0.12112063465421617,-40.521376027426626,-6.531044001900964,0.5315321822522745
99,1506457706.144,-22.53561178365143,-0.12181401628339378,0.686131177951621,-40.33744785988188,-6.266579239978044,1.0640341883595201
100,1506457709.353,-22.322148130544615,0.24079840665997881,1.141509837316373,-40.14362384688341,-5.3345956648674875,1.609498046110373
101,1506457719.488,-21.741341179612114,3.100465950946156,1.566440964555033,-41.01696630961908,-2.4637986459358965,2.0460030912707285
102,1506457729.56,-21.609862062883032,5.998222248325313,1.416830105146649,-42.36397112481281,0.23453597669749676,1.907418051072309
103,1506457739.699,-20.874604606729598,8.821295869763084,1.2184764801189885,-43.31488676348914,3.111267453889356,1.6983114432486717
104,1506457749.764,-19.402966767320258,11.0484875988894,0.9584532383528702,-43.28000339665853,6.122944302221684,1.453558185165154
105,1506457757.847,-16.88034836962619,12.775744162157963,0.48914603526354944,-42.00266025130082,8.974239077466018,1.0052039373097335
106,1506457762.97,-14.037291703614976,13.86199230367841,0.30757626388203263,-40.1895980419297,11.452903744012707,0.83917448018844
107,1506457768.098,-10.992132622594127,14.304043936848446,0.056328893488328834,-37.90806719981076,13.502247492022947,0.5981886423956837
108,1506457775.349,-7.956755850797635,13.956910196071123,-0.28390016577683747,-35.24353086468662,14.8884219084662,0.26348284103825037
109,1506457781.48,-5.174419431156664,12.473900361625832,-0.6642081448513848,-32.21101359479598,15.188208655095226,-0.11521669787694136
110,1506457787.714,-4.067437644379616,10.171535608452553,-1.1692637508726518,-30.471008592174556,14.561981605292893,-0.6874107677835629
111,1506457810.713,-3.6351753415758155,8.060642918578449,-0.6434814827638267,-29.12326680240751,13.075334362606476,-0.15875862894562195
112,1506457817.068,-0.927027412315367,6.505546075344854,-0.46663151309468354,-26.050529205438014,13.139119740835858,0.0122415372051945
113,1506457824.297,1.7040803003105955,4.909549887044665,-0.5190128098576677,-22.978391253371637,13.059256474694434,-0.037109287338272796
114,1506457829.333,3.7481639587995947,4.028550028068393,-0.6866652730327146,-19.976956762813714,12.728640772233462,-0.20795690337828482
115,1506457834.485,6.08409093924377,1.7854148972188744,-0.9202000485480175,-17.050607451108476,11.75493397655555,-0.44538126877424755
116,1506457842.178,7.269847523502909,-0.2244794379160009,-1.3980092959138106,-14.642002291175091,9.947446663624646,-0.9193107053178293
117,1506457849.268,7.197191433368596,-0.8083627668848098,-1.9410899231696375,-14.184881766759947,9.170916484323085,-1.4549934057901885
118,1506457856.478,6.595878946166172,-0.7270781965759906,-2.469680090223133,-14.184881766759947,9.170916484323085,-1.9857241759659536
119,1506457872.97,5.331876729538366,-2.0498142172229747,-1.8916456568250544,-14.53209590870469,6.834235288067948,-1.453089683888558
120,1506457880.618,6.378813224377171,-4.237836887285443,-1.4491064377298457,-13.156875870135966,4.148860473424309,-0.9881739091012847
121,1506457885.678,6.821229257880795,-6.164485377981285,-1.5750526094341375,-11.528106700945024,1.5896882751749166,-1.0981725619416993
122,1506457897.719,7.783221067603993,-9.058605449710884,-1.6103740510829976,-10.264508599465994,-1.1643235321831433,-1.0940472973674042
123,1506457907.819,7.4472533748407965,-12.7170204247394,-1.927967890494341,-9.295340400776158,-4.024143185216508,-1.4343352137938528
124,1506457922.135,7.346591416756281,-15.367107787909333,-1.439110154960801,-8.799903702496058,-6.98421655540263,-0.9418840421589726
125,1506457939.133,7.525978337556568,-17.374951369016724,-1.2292023126973812,-6.92843234000035,-9.338699227385947,-0.7783993411699415
126,1506457949.154,8.754135041359929,-19.785805794081313,-1.184520516463993,-4.62169419468554,-11.261485976761442,-0.7573793116230805
127,1506457959.308,10.498782784026993,-22.67222931234396,-0.9982987041596031,-2.2947960685422077,-13.21705882160654,-0.5797223363549664
128,1506457969.476,12.232910587136056,-24.09788859696942,-0.935897694482083,0.27136999781871857,-14.864053813519293,-0.5000076566292395
129,1506457978.479,13.881176383096669,-26.550775231657212,-0.9716666791211892,2.870496866662876,-16.424746056021032,-0.5523146175271845
130,1506457987.343,15.723928331409214,-27.824658245434403,-0.8028697353052786,5.692112451289751,-17.59023726368579,-0.30407410856889866
131,1506457992.499,17.510378383740143,-29.063028855983145,-0.8164780880087443,8.660521012649067,-18.460994708759646,-0.30206976754797754
132,1506457997.52,19.12425625182239,-30.38713343118811,-0.9359755013292295,11.494787377367162,-19.47730183687489,-0.4327574305718431
133,1506458005.17,20.673637376492934,-31.829996605786686,-0.4272823296766063,13.768556673963491,-20.154985296374825,0.10315414799495272
134,1506458014.304,23.63260916935026,-32.12395350517702,-0.11960473146347876,16.7019424572004,-19.27559016465581,0.40699602594800055
135,1506458022.566,26.476426289969517,-32.506296046868066,-0.18779000189632114,19.548574798095423,-18.257313237998176,0.29634633920926534
136,1506458028.004,27.47144401805027,-32.474444973733846,0.37669509713552324,20.92285735845033,-17.421410310397004,0.8301538196189141
137,1506458032.19,28.071878611531716,-31.77791059466108,0.8892682918776861,21.450613917884983,-16.30016906483073,1.3653832611012333
138,1506458042.236,29.972245556280683,-30.017166241663215,1.1008980224613287,21.782265174553256,-13.30748947211515,1.549263541466516
139,1506458052.36,31.651821523885687,-27.340368906924414,0.9798207850351932,21.891656629744833,-10.275896723077096,1.4294394479104238
140,1506458062.766,33.55259899901256,-24.957872976885646,1.510134722467256,22.323737742862665,-7.411624648045137,1.9544996206591785
141,1506458079.015,33.03361957369125,-21.928005127543468,1.8125411673245666,20.35118940665802,-5.111471866249639,2.288604978630105
142,1506458090.046,32.50787224476385,-21.698210601527556,1.9130874077410382,18.197840559352432,-2.968692449483066,2.4662274882442863
143,1506458100.112,31.825021864904674,-19.04418011877883,1.9751011787428105,15.796041969841852,-1.1435438422113393,2.4712602222538873
144,1506458110.316,31.075859700186818,-16.2238004874305,1.717717065041097,13.552563130064959,0.919276446697914,2.2355701020308567
145,1506458121.539,31.728022650221334,-12.859322743063892,1.7390195973917075,11.795509813498404,3.4028469740975096,2.3029323830701616
146,1506458131.605,31.370162589586837,-9.876809982927835,1.5947557910185228,10.022755893569604,5.8448941491841975,2.155145822079941
147,1506458154.603,31.283095834329934,-6.907971562367915,1.669744354564693,8.494184049792432,8.447063769980698,2.226686978073051
148,1506458164.792,29.94552442432813,-4.133812370284081,2.2267932696183212,6.214278743965343,10.438958771504259,2.7544774162634753
