keyframe_id,time,x,y,theta
0,1506456462.599,-0.7292985895464495,2.0628959422704147,0.10902914503651683
1,1506456471.591,0.14334023016923605,2.6512237396668863,0.08965737090402125
2,1506456474.706,1.1790138946788673,2.6412283459828516,-0.00039303578803924683
3,1506456482.784,1.9097502498885093,2.5461599900845986,-0.557938111358977
4,1506456486.191,2.831949673340479,2.0652296984831855,-0.2434527955453356
5,1506456489.424,3.666239236904586,1.4825315910726853,-0.7518606939316981
6,1506456493.299,4.410562549166422,0.7728321013039717,-0.8173936695883639
7,1506456496.752,5.133689948974689,0.05949098560619493,-0.8411499545776007
8,1506456500.386,5.900992729994393,-0.630072786042644,-0.8646732071034124
9,1506456503.904,6.577689795826487,-1.3743349150105646,-0.8243046176332615
10,1506456507.44,7.393933387850037,-1.9888426239642754,-0.8168905552621779
11,1506456511.266,8.094164870678908,-2.6894978954281514,-0.8355750713606718
12,1506456521.638,7.662507525899381,-3.58007536291373,-1.3084149897242778
13,1506456532.491,7.369362060524938,-4.530724000261171,-1.6016616042276612
14,1506456546.598,6.569457345730961,-5.124267359757286,-2.00926315476265
15,1506456563.808,6.180367443960559,-6.027130771390643,-2.0663346570298535
16,1506456572.038,6.440685610238018,-6.983115145784901,-1.6702289717350196
17,1506456580.358,6.653483925117736,-7.988981466613229,-1.5316056091325505
18,1506456584.613,6.819986392306461,-9.001109211067401,-1.5552734367440653
19,1506456589.0,7.001371564561514,-10.042707978771839,-1.5340512685800765
20,1506456593.514,7.291811984325337,-11.032279972529892,-1.4222471485046035
21,1506456597.456,7.6859649043219775,-12.016391903662615,-1.3857318968482288
22,1506456601.202,8.080900293626971,-12.96364183598593,-1.369989428329149
23,1506456605.571,8.327074760994511,-13.948466342719906,-1.3972460778115023
24,1506456614.519,8.046315927790685,-14.931971690611956,-1.7068821586872738
25,1506456619.917,8.168991119167103,-15.925858385815346,-1.6872752534338071
26,1506456624.026,8.334928800222709,-16.941574815010558,-1.586303686380996
27,1506456642.188,8.459365513586029,-17.950640463986243,-1.885093000404715
28,1506456647.494,8.41079959837648,-18.97287462318488,-1.8478011953120137
29,1506456651.591,8.505598545097055,-19.98105371587829,-1.7481774736797904
30,1506456655.975,8.253631431090016,-20.95900643809534,-1.6754945909740968
31,1506456658.975,8.594933693708562,-21.92336885588102,-1.656590089006446
32,1506456662.095,8.739702438026768,-22.906981804694734,-1.6576509483470974
33,1506456665.158,8.886511344490733,-23.90791192319697,-1.6614571838211145
34,1506456668.347,8.98617670476106,-24.926055928431445,-1.6694953510787733
35,1506456671.502,9.112371461223717,-25.93593523179377,-1.6882869265883507
36,1506456674.555,9.182286881002563,-26.950904184489925,-1.719822878283583
37,1506456677.494,9.288747360932678,-27.973914209775874,-1.7300347991603469
38,1506456680.234,9.328243130147964,-28.997985502607058,-1.7691961540693946
39,1506456682.825,9.347218839864645,-29.99279625183128,-1.8133065803544
40,1506456685.585,9.321170189380284,-31.064777019446257,-1.860038262276168
41,1506456688.235,9.275192487348276,-32.102594505137965,-1.9011731032902894
42,1506456691.073,9.186276683055363,-33.11644420061568,-1.9363513651897397
43,1506456695.105,9.27405359106838,-34.12678247562874,-1.7331010035539138
44,1506456702.83,10.27651982013051,-34.0459329638374,-1.2159767239744739
45,1506456710.813,11.286617129887404,-33.89540256443977,-0.7215976408726046
46,1506456715.792,12.251066225130188,-34.286961196869385,-0.595978738551303
47,1506456722.118,13.244034197357244,-34.58879900072361,-0.44855398833665044
48,1506456727.913,14.194365132185643,-34.97139457787418,-0.3698386977085909
49,1506456733.787,15.035917025764803,-35.58360618936491,-0.4007494960692457
50,1506456740.161,16.08867186825157,-35.8269249228175,-0.2300732898105993
51,1506456745.291,17.065608324907558,-36.17811249875731,-0.15544503932304987
52,1506456750.9,18.095853102537585,-36.41980688480184,-0.14398051972570333
53,1506456755.81,19.118179496945903,-36.67884763718991,-0.14338565581120075
54,1506456763.875,20.142852236058598,-36.76194789191137,-0.032566582109877736
55,1506456771.269,21.143924146371766,-36.533093978794476,0.25691096456800067
56,1506456777.61,22.18787409676053,-36.4814120124548,0.3975143715381794
57,1506456783.376,23.202928513659085,-36.215356277958186,0.4923278574846183
58,1506456799.274,23.500507134172462,-37.20003330206386,0.6993739409004218
59,1506456816.152,23.479728342995866,-38.216068473310976,0.8266868469585458
60,1506456836.097,24.3317427462737,-37.63960979774085,0.8633195193278538
61,1506456839.824,25.190576707526947,-37.057731849705924,0.8536777244288223
62,1506456843.456,26.071832880788648,-36.52261370502188,0.8411665696626988
63,1506456847.093,26.93315219005841,-35.89031715923375,0.8282495275980742
64,1506456850.612,27.802149114668023,-35.36113426590698,0.8047586106904439
65,1506456854.164,28.67491822189205,-34.80626813209244,0.7601217337527765
66,1506456857.676,29.561541253103844,-34.27624979654707,0.7449772634499565
67,1506456861.142,30.467123848203904,-33.73478652671361,0.762468292639233
68,1506456864.537,31.362289969153913,-33.22190912177104,0.781241403729497
69,1506456868.825,32.17481634420238,-32.607294648671086,0.8144533571345809
70,1506456883.364,32.63549457985883,-31.675925554370743,0.9548629091489274
71,1506456888.567,33.528776396550086,-31.14936079654583,0.8422607747922545
72,1506456901.137,33.83654828016109,-30.20181938435387,0.7962602975374955
73,1506456923.024,32.857377135404285,-30.162667828083155,1.0937154848443835
74,1506456929.558,33.165496448271384,-29.21762816387547,1.0417058518032674
75,1506456935.68,34.116922373226274,-28.85220021384765,0.9395573085840686
76,1506456942.273,35.01045353509452,-28.398515039533102,0.9052505633258515
77,1506456968.168,34.434354865899486,-27.831577545215385,1.5110082861568763
78,1506456976.603,34.44275710541687,-26.857249705999063,1.865640501613017
79,1506456981.633,34.4862425450783,-25.86746135675291,1.8631271117991581
80,1506456986.393,34.522887411191334,-24.909093873834408,1.8153267583417123
81,1506456991.432,34.63620623359677,-23.933680740542517,1.7933623686905926
82,1506456994.259,34.89705138142477,-23.002906679306747,1.724570488292858
83,1506457008.919,35.28807278741369,-22.135146951006032,1.9914980736596208
84,1506457023.34,34.981773997797546,-21.417262582699653,2.537508966120732
85,1506457032.387,34.21078055692195,-20.639534631129234,2.61641287113015
86,1506457042.592,33.25463666186253,-20.409312139713712,2.7852851906681964
87,1506457047.806,32.89280484205295,-19.42368970249875,2.7587376775184733
88,1506457048.84,32.96581758802722,-18.240041132114825,2.768000093706437
89,1506457049.875,32.69286669810821,-19.427937808111317,2.680685854324373
90,1506457056.329,31.980601804449382,-18.72753066539777,2.5409915149126165
91,1506457059.871,31.435369945172088,-17.884957985421153,2.4938249649665307
92,1506457064.282,30.98300357248328,-17.040887699449875,2.4357753536124305
93,1506457078.184,30.11565406800099,-16.56843407981914,2.344101131602759
94,1506457086.542,29.613323575420857,-15.74866590356355,2.292167140236224
95,1506457101.845,28.890851818752,-15.144547060421774,2.2421822383392653
96,1506457122.865,27.962458893038182,-15.443596702437366,1.8815297497635206
97,1506457132.313,27.405283454449446,-16.272414729632672,2.3198703118802366
98,1506457139.288,26.450343509747064,-16.386242310455152,2.6667453008221433
99,1506457142.014,25.637699158097902,-15.780736306423671,2.6009797292285732
100,1506457144.826,24.837827309577726,-15.173045062731122,2.5749562965902815
101,1506457147.37,24.10108419805408,-14.590705739051394,2.5792792252418844
102,1506457150.039,23.321756764458225,-14.004100920819466,2.6097329741469535
103,1506457152.951,22.467795591982153,-13.528831468085595,2.647546737320161
104,1506457155.621,21.6508034122074,-13.055999317516845,2.6753840103700055
105,1506457158.027,20.830900954527657,-12.584018680615817,2.686625836985269
106,1506457160.715,19.969267756395585,-12.16842075470532,2.7127785758973544
107,1506457163.605,19.0454548403934,-11.769535615457066,2.6933654010043435
108,1506457166.315,18.153526839885338,-11.319144574270997,2.6868454255219394
109,1506457168.967,17.252364558585786,-10.875084786744726,2.6760491964064768
110,1506457171.468,16.381280174617217,-10.430646545072344,2.651291411338159
111,1506457174.105,15.488833986007485,-9.908788539853187,2.599769298260665
112,1506457177.281,14.644501511618966,-9.359713827838906,2.5787396087356496
113,1506457181.529,13.835512658806824,-8.77894236153818,2.5189413927678377
114,1506457186.538,13.007359620500306,-8.250282563695908,2.472743994136319
115,1506457191.906,12.21653466467833,-7.6220676236979115,2.4581643420127715
116,1506457196.546,11.63658027848049,-6.798623238310601,2.359159514326045
117,1506457200.874,11.227007187361696,-5.891124302719956,2.3335918658413246
118,1506457205.612,10.69930166077216,-5.025527710234188,2.368030077772601
119,1506457211.219,10.0872722115753,-4.195554811228884,2.324860347890229
120,1506457217.268,9.553652161615895,-3.3203936912202865,2.2758562704088487
121,1506457222.602,9.093377666974497,-2.4039758382927054,2.2638126154177045
122,1506457227.356,8.662394630028142,-1.4885077694416309,2.242825625805511
123,1506457234.597,8.281847106158816,-0.558412140327451,2.0690177319273486
124,1506457241.104,8.186354420642866,0.4611241395071662,1.959491063871642
125,1506457250.1,8.318484841879762,1.4602800229177664,1.7341514325492495
126,1506457275.028,9.09488503902344,2.1110708101784055,2.216485504667322
127,1506457285.228,8.843930539262658,3.2658828545290617,2.218192364997777
128,1506457288.29,8.487016726082336,4.380285149359976,2.2816787807038708
129,1506457293.257,7.946677341900255,5.223833814380976,2.359061981062078
130,1506457297.542,7.409811740857269,6.083564267108235,2.699215043992225
131,1506457302.26,6.423951961094848,6.302918407963843,3.0117258881017297
132,1506457305.752,5.4370926452187245,6.226025366090291,-3.101571580443791
133,1506457309.246,4.47520249184688,5.970946509128148,-3.022679774550931
134,1506457313.46,3.572326309344901,5.556346936743566,-2.937757619384123
135,1506457319.535,2.5569482625858844,5.418740885148778,-3.0440567319353646
136,1506457322.619,1.5627627759188807,5.163824791906005,-2.9958311315382105
137,1506457325.505,0.5962479131789598,4.844762881583674,-2.9170349738702184
138,1506457328.414,-0.28724876344082334,4.386942639349701,-2.8331552549000945
139,1506457332.202,-1.0548210636181423,3.7298333493616656,-2.791289017220218
140,1506457339.57,-1.808599416358646,3.066623784455195,-2.9244622434844953
141,1506457343.527,-1.8536340014992425,3.5515928561706684,2.802932816339132
142,1506457347.036,-2.6553538034202346,4.169260479221475,2.6178513642016066
143,1506457351.143,-3.698428977380586,4.387687681774419,2.6375286710199966
144,1506457353.423,-4.508459126016519,5.014996864000892,2.7057125968789966
145,1506457356.176,-5.4224860562696495,5.393148190128902,2.787556450673182
146,1506457359.492,-6.413749465009892,5.601163814332012,2.909342493595728
147,1506457363.791,-7.438505364057745,5.560869624780569,3.021953550985917
148,1506457371.812,-8.347058905311496,6.018325768523017,2.8201128415964636
149,1506457375.293,-9.320175899444205,6.369948825705064,2.803251728803452
150,1506457378.376,-10.31484811744602,6.640682114369645,2.9069263878642313
151,1506457381.4,-11.322380290612813,6.8068000861972955,3.1211426679542935
152,1506457388.315,-12.185819467781917,7.283737460097456,2.8670717543119593
153,1506457392.072,-13.033378777299852,7.805848045691299,2.806204449226499
154,1506457395.532,-13.847810999609916,8.371914170181656,2.7884786996429276
155,1506457399.125,-14.685231140595407,8.941804619472595,2.803529424418647
156,1506457405.735,-15.537455308568193,9.451721334498329,2.750498738895256
157,1506457409.808,-16.430109355516787,9.880145884808158,2.958209102873821
158,1506457413.953,-17.434331164030816,10.036634705674622,2.9878791960936457
159,1506457417.033,-18.43182039825018,9.929236607069182,2.9812916350156318
160,1506457420.192,-19.441716460029603,9.644130539123676,3.106187858270761
161,1506457423.403,-20.350665462812216,9.215391539807651,-2.886113337732469
162,1506457426.613,-21.174455791552063,8.704161192953142,-2.710857102656244
163,1506457430.014,-22.03379179447818,8.093231132305613,-2.7052981563840657
164,1506457433.364,-22.75764745620482,7.433970366144942,-2.592529994033837
165,1506457437.07,-23.438854895815187,6.496665805667415,-2.3319029426178672
166,1506457440.572,-23.70066279991008,5.535247498608283,-2.2065196297898404
167,1506457443.167,-24.144338457323617,4.668232424312555,-2.1560424463366004
168,1506457446.001,-24.409377422762905,3.7238601439502164,-2.0987713551375475
169,1506457448.895,-24.68203239741304,2.7365892412090256,-2.062202274563947
170,1506457451.667,-24.879511544120476,1.7823908876168284,-2.0215994893449603
171,1506457454.453,-25.066406471418425,0.818975341873972,-2.000886871517837
172,1506457457.265,-25.1773166235553,-0.1990590806909668,-1.9797478038666718
173,1506457460.223,-25.353583963588413,-1.1903419750477495,-1.9532178382022127
174,1506457462.743,-25.491857028571317,-2.1547947110019487,-1.9212472088502661
175,1506457465.392,-25.686842697377,-3.155075025960899,-1.8804251263589644
176,1506457468.061,-25.76158540674496,-4.130402311365739,-1.8506598338225015
177,1506457470.722,-25.855676930156456,-5.102369301241676,-1.8265809332284924
178,1506457475.418,-25.623783506693844,-6.048252549612301,-1.954262753293732
179,1506457480.468,-25.669067985930933,-6.922281121922066,-2.4996183454626357
180,1506457483.96,-26.3493238100936,-7.645674200501143,-2.577707088645035
181,1506457487.251,-26.763958799535448,-8.530999861927908,-2.58173155002142
182,1506457490.368,-27.405871810256638,-9.266882981860949,-2.5098837833289727
183,1506457493.465,-28.027640304242343,-10.009445624369315,-2.4509986239570867
184,1506457496.244,-28.697320799934253,-10.782869138530353,-2.368293779804627
185,1506457499.102,-29.296013555430925,-11.583436874716833,-2.293346628257414
186,1506457501.73,-29.886447972874933,-12.439898839204655,-2.2466057462595925
187,1506457504.607,-30.51296531855356,-13.199950861570818,-2.186067151474224
188,1506457507.185,-30.944759638376624,-14.071027166976675,-2.1420008835251547
189,1506457509.835,-31.3537230548293,-15.009834737689534,-2.098561297341872
190,1506457512.502,-31.630500546121624,-15.974732224960071,-2.070480375075191
191,1506457520.209,-31.738525795664717,-16.98488016872001,-2.0745238329918
192,1506457524.534,-31.37919123384393,-17.92570478114295,-2.356481399202218
193,1506457530.201,-31.424573816547916,-18.54857275696442,-2.9377487465638543
194,1506457533.85,-32.42848354208769,-18.399242374682977,3.020726813077141
195,1506457536.961,-33.45444096623838,-18.230537070923383,2.9133820134930764
196,1506457540.342,-34.46857377559276,-18.0689589588596,2.945115210466281
197,1506457543.246,-35.49200010809973,-17.90168195253715,2.9824054745740542
198,1506457546.074,-36.50660759802512,-17.83355575349917,3.095309991606077
199,1506457548.991,-37.52060950224487,-17.908427405172322,-3.0750854449084937
200,1506457553.813,-38.5013631590586,-18.15468839940524,-3.0344733392224934
201,1506457559.465,-39.12828707663332,-17.949616208146853,2.724525513532873
202,1506457563.489,-39.79359845986368,-17.183079799058508,2.324307237949186
203,1506457566.32,-40.34740837996561,-16.314060656490096,2.188608296561466
204,1506457569.178,-40.89120077528282,-15.417954648426695,2.2137351069530253
205,1506457572.673,-41.47007076171115,-14.548624257105814,2.2330192709942582
206,1506457577.594,-42.01213281581928,-13.695240034618726,2.2287939022582726
207,1506457583.151,-41.875018082408225,-12.775726403639954,1.6814359354030575
208,1506457586.293,-41.66480324771334,-11.801112136732145,1.4819970691046636
209,1506457589.438,-41.15673510038391,-10.872309258888077,1.3296440402724765
210,1506457592.864,-40.62397213554025,-9.976434959102962,1.2577027237362157
211,1506457596.268,-40.1186293624237,-9.12527407543898,1.0748326347063564
212,1506457599.977,-39.177578293499074,-8.73150358581113,0.661233567642048
213,1506457602.701,-38.22967569127618,-8.466356400675986,0.4396675109141295
214,1506457604.848,-37.25639058360355,-8.640311047591746,0.3243060770886869
215,1506457607.252,-36.21233303276356,-8.527495101881785,0.2678190374093202
216,1506457609.816,-35.21158315102194,-8.358564134808354,0.269579572989795
217,1506457612.903,-34.201466207973056,-8.312068914492711,0.3090742312568071
218,1506457616.53,-33.22599697636855,-8.133832241190763,0.5601890696254851
219,1506457619.059,-32.289668631758204,-7.694445070789845,0.6256696754968091
220,1506457621.479,-31.37315481129156,-7.165173118373881,0.6912822154283104
221,1506457624.259,-30.524623311220143,-6.625690432899811,0.8032288871425083
222,1506457626.677,-29.71545095328262,-6.003751584715886,0.8396193696442994
223,1506457629.734,-28.817948119850215,-5.5370918330065395,0.9943642006009455
224,1506457633.546,-28.381991677908402,-4.560183410102157,1.2992157310644563
225,1506457635.467,-28.328843816774732,-3.5637269175438457,1.3520997582157357
226,1506457637.796,-28.17099871632773,-2.566431453580838,1.404901337931033
227,1506457641.002,-27.969793110344334,-1.5678321177063308,1.4722443917825034
228,1506457647.422,-27.363205590896765,-0.7646601356498649,1.715917624709787
229,1506457650.317,-27.563279670100975,0.23808573223425517,1.7663396379094813
230,1506457653.353,-27.9615942659355,1.2073477683694995,1.8515844304996405
231,1506457656.519,-28.270245876906472,2.178308272697326,1.9914481804505022
232,1506457661.969,-28.154984201673017,3.016434426845118,1.4128571758564343
233,1506457668.283,-27.39620865050739,3.586984518960752,0.8706220868970828
234,1506457672.329,-26.572931857297636,3.1493287512518364,0.33416089477897143
235,1506457676.047,-25.864668493893813,2.970159879135959,-0.22102750205757893
236,1506457679.673,-25.451507986475253,2.3551111732792345,-0.7679415351840826
237,1506457684.211,-24.945080218873446,1.4032698411161288,-1.1639105800166307
238,1506457686.34,-24.498105952432176,0.4701508911433148,-1.2110735288318086
239,1506457688.774,-24.05271756319677,-0.4763211132671749,-1.2253896189412135
240,1506457693.507,-23.39086559541269,-1.2605800547379136,-1.0353119344601183
241,1506457698.671,-22.47359180140923,-1.6819539739795337,-0.5022013765923352
242,1506457702.429,-21.765368630826256,-1.8935923544506883,0.03759696385905877
243,1506457706.144,-21.732030841215323,-1.8827562333929384,0.571578582196081
244,1506457710.033,-21.35980255854544,-1.5745950186245203,1.112250020731632
245,1506457713.523,-20.783317898312795,-0.742645101034566,1.3521620232589984
246,1506457716.733,-20.522278162336743,0.2075856055921418,1.5075549608606762
247,1506457719.657,-20.40987733333529,1.2449387283880642,1.5559067660959032
248,1506457722.461,-20.301087629484176,2.2652282275865594,1.5628317004997205
249,1506457725.574,-20.114641014490463,3.26429496299354,1.5431448774159893
250,1506457728.846,-19.93718633884619,4.238257804623625,1.5064508548495334
251,1506457733.701,-19.760400280755487,5.238891275275462,1.503256605999187
252,1506457737.329,-19.47701008581398,6.185687047117297,1.3408146636793388
253,1506457742.362,-18.89779584188872,6.992791533580628,1.1276485250275154
254,1506457747.342,-18.111704297999346,7.593739516880963,1.0126787691790287
255,1506457750.477,-17.20594046829514,8.142011501977674,0.930471488652906
256,1506457753.172,-16.309625889047563,8.613037902211078,0.6126753773612852
257,1506457756.442,-15.388379569176728,9.01403649452813,0.5675799345024615
258,1506457758.74,-14.428120664039833,9.395823633582138,0.5014676655727642
259,1506457761.008,-13.420095271468545,9.701546517154286,0.4213926803112277
260,1506457763.17,-12.446705192978985,9.914968008633323,0.3398154806830072
261,1506457765.339,-11.438013176432186,10.036865220172512,0.22760792848787534
262,1506457767.564,-10.371194396878908,10.080424394807645,0.10571635007315211
263,1506457769.697,-9.322759572374176,10.02716300612976,0.031177367165966835
